#                 x                   p
  5.82806719551e-19       101824.729883
   0.00502512562814       101824.760447
    0.0100502512563       101824.771483
    0.0150753768844       101824.776914
    0.0201005025126       101824.780987
    0.0251256281407       101824.785612
    0.0301507537688       101824.791387
     0.035175879397       101824.799456
    0.0402010050251        101824.81082
    0.0452261306533       101824.826333
    0.0502512562814       101824.847616
    0.0552763819095       101824.875077
    0.0603015075377       101824.909274
    0.0653266331658        101824.95116
     0.070351758794       101825.002251
    0.0753768844221       101825.064818
    0.0804020100503       101825.142335
    0.0854271356784       101825.238888
    0.0904522613065        101825.36014
    0.0954773869347       101825.514738
     0.100502512563       101825.718006
     0.105527638191       101825.995691
     0.110552763819        101826.38279
     0.115577889447        101826.92853
     0.120603015075       101827.699718
     0.125628140704       101828.762122
     0.130653266332       101830.131405
      0.13567839196       101831.708412
     0.140703517588       101833.333605
     0.145728643216       101834.826599
     0.150753768844       101836.064684
     0.155778894472       101837.123172
     0.160804020101       101838.104527
     0.165829145729       101838.955528
     0.170854271357       101839.673538
     0.175879396985       101840.311929
     0.180904522613        101840.88676
     0.185929648241       101841.426061
     0.190954773869       101841.916249
     0.195979899497       101842.348875
     0.201005025126        101842.74204
     0.206030150754       101843.099627
     0.211055276382       101843.438833
      0.21608040201       101843.776278
     0.221105527638       101844.113455
     0.226130653266       101844.457651
     0.231155778894       101844.768456
     0.236180904523       101845.032706
     0.241206030151       101845.230037
     0.246231155779       101845.415724
     0.251256281407       101845.625777
     0.256281407035       101845.777175
     0.261306532663       101845.900976
     0.266331658291       101846.077567
      0.27135678392        101846.25623
     0.276381909548       101846.383567
     0.281407035176       101846.502068
     0.286432160804       101846.676915
     0.291457286432        101846.87556
      0.29648241206       101847.034508
     0.301507537688       101847.171153
     0.306532663317       101847.293953
     0.311557788945       101847.404908
     0.316582914573       101847.503086
     0.321608040201       101847.613498
     0.326633165829       101847.746951
     0.331658291457       101847.867039
     0.336683417085       101847.942127
     0.341708542714       101848.007285
     0.346733668342         101848.1189
      0.35175879397       101848.247718
     0.356783919598       101848.391267
     0.361809045226       101848.519132
     0.366834170854        101848.61095
     0.371859296482       101848.747107
     0.376884422111       101848.900145
     0.381909547739       101849.022673
     0.386934673367       101849.130582
     0.391959798995       101849.229236
     0.396984924623       101849.321617
     0.402010050251       101849.411357
     0.407035175879        101849.50747
     0.412060301508       101849.605125
     0.417085427136       101849.688483
     0.422110552764       101849.762035
     0.427135678392       101849.837152
      0.43216080402       101849.905707
     0.437185929648       101849.983742
     0.442211055276       101850.106963
     0.447236180905       101850.267647
     0.452261306533       101850.433902
     0.457286432161       101850.612457
     0.462311557789       101850.837111
     0.467336683417       101851.076413
     0.472361809045       101851.294992
     0.477386934673       101851.505438
     0.482412060302       101851.719783
      0.48743718593       101851.935368
     0.492462311558       101852.126895
     0.497487437186        101852.29547
     0.502512562814       101852.468811
     0.507537688442       101852.636033
      0.51256281407        101852.76636
     0.517587939698       101852.880381
     0.522613065327       101853.008354
     0.527638190955       101853.124357
     0.532663316583       101853.205054
     0.537688442211       101853.250294
     0.542713567839       101853.309784
     0.547738693467        101853.40917
     0.552763819095       101853.492239
     0.557788944724        101853.52185
     0.562814070352       101853.526129
      0.56783919598       101853.581195
     0.572864321608       101853.700408
     0.577889447236        101853.82133
     0.582914572864       101853.911218
     0.587939698492       101853.980134
     0.592964824121       101854.031086
     0.597989949749       101854.064323
     0.603015075377       101854.083153
     0.608040201005       101854.082015
     0.613065326633       101854.067347
     0.618090452261       101854.037272
     0.623115577889        101853.96791
     0.628140703518       101853.904325
     0.633165829146       101853.880488
     0.638190954774       101853.837987
     0.643216080402       101853.799697
      0.64824120603       101853.783983
     0.653266331658        101853.73502
     0.658291457286       101853.705225
     0.663316582915       101853.721884
     0.668341708543        101853.71539
     0.673366834171       101853.676782
     0.678391959799       101853.634014
     0.683417085427       101853.583954
     0.688442211055       101853.507266
     0.693467336683        101853.45448
     0.698492462312       101853.447371
      0.70351758794       101853.427424
     0.708542713568       101853.369982
     0.713567839196       101853.296915
     0.718592964824        101853.24319
     0.723618090452       101853.220142
      0.72864321608       101853.199316
     0.733668341709       101853.151669
     0.738693467337       101853.086659
     0.743718592965       101853.015294
     0.748743718593       101852.941905
     0.753768844221       101852.914799
     0.758793969849       101852.926118
     0.763819095477       101852.895504
     0.768844221106       101852.840165
     0.773869346734       101852.760314
     0.778894472362       101852.677162
      0.78391959799       101852.680656
     0.788944723618       101852.723683
     0.793969849246        101852.73137
     0.798994974874       101852.709499
     0.804020100503       101852.672229
     0.809045226131       101852.646415
     0.814070351759       101852.600927
     0.819095477387       101852.568992
     0.824120603015       101852.577533
     0.829145728643       101852.563398
     0.834170854271       101852.574604
     0.839195979899       101852.613049
     0.844221105528       101852.621648
     0.849246231156       101852.676272
     0.854271356784       101852.769619
     0.859296482412       101852.809184
      0.86432160804       101852.808758
     0.869346733668       101852.820494
     0.874371859296       101852.880163
     0.879396984925       101852.940572
     0.884422110553         101852.9674
     0.889447236181       101852.955113
     0.894472361809       101852.999692
     0.899497487437        101853.09204
     0.904522613065       101853.105252
     0.909547738693       101853.161211
     0.914572864322       101853.272126
      0.91959798995       101853.371067
     0.924623115578       101853.506061
     0.929648241206       101853.614154
     0.934673366834       101853.692256
     0.939698492462        101853.73956
      0.94472361809        101853.82251
     0.949748743719       101853.941021
     0.954773869347       101854.018162
     0.959798994975       101854.051366
     0.964824120603       101854.120788
     0.969849246231       101854.249908
     0.974874371859       101854.312542
     0.979899497487       101854.339039
     0.984924623116       101854.361542
     0.989949748744       101854.313383
     0.994974874372       101854.239991
                  1       101854.181946
